11111,11111
0,0
82484,82100
134946,105212
138642,105202
138693,105229
138830,105247
138846,105271
138821,105246
138783,105195
138834,105237
138861,105238
138910,105258
138872,105262
138752,105164
138808,105222
138796,105195
138803,105178
138743,105189
138590,105096
138610,105110
138601,105117
138564,105081
138503,105047
138361,105052
138345,105028
138374,105018
138308,105000
138323,105001
138187,104976
138170,104982
138259,104963
138258,104946
138236,104976
138075,104899
138156,104941
138206,104991
138195,104937
138178,104932
138105,104960
138148,104960
138247,104987
138224,104979
138214,104933
138196,104950
138230,104983
138319,104984
138324,105009
138325,104967
138285,104981
138352,105037
138415,105042
138477,105050
138453,105052
138391,105026
138543,105058
138573,105121
138608,105099
138634,105121
138580,105084
138709,105120
138760,105160
138777,105120
138827,105141
138749,105152
138882,105199
138897,105206
138933,105188
138984,105205
138952,105222
139069,105244
139112,105280
139147,105246
139202,105275
139167,105255
139269,105322
139308,105332
139368,105347
139328,105341
139316,105317
139402,105394
139482,105408
139450,105372
139491,105340
139441,105408
139546,105403
139606,105404
139631,105394
139606,105453
139563,105422
139715,105438
139755,105498
139738,105490
139726,105425
139677,105401
139713,105435
139693,105437
139555,105375
139424,105285
139184,105218
139064,105147
138849,105091
138571,104996
138304,104870
138015,104805
137887,104763
137764,104725
137625,104714
137440,104597
137335,104581
137324,104606
137298,104519
137251,104525
137120,104515
137066,104506
137170,104519
137116,104574
137117,104499
137106,104515
137026,104494
137164,104514
137175,104560
137178,104543
137119,104521
137105,104544
137227,104579
138250,104907
137982,104768
138010,104778
138011,104777
138001,104785
138041,104810
138157,104832
138664,105024
138699,104985
138658,105018
138743,105046
138797,105036
139097,105188
139181,105170
139174,105157
139223,105168
139164,105174
139214,105191
139242,105158
139201,105161
139082,105088
138915,105064
138832,105054
138722,104928
138529,104882
138212,104798
137971,104722
137764,104625
137651,104609
137508,104522
137287,104509
137150,104456
137146,104472
137050,104410
136965,104324
136872,104336
136790,104304
136762,104323
136777,104284
136749,104248
136673,104286
136614,104268
136647,104280
136709,104284
136700,104239
136598,104273
136556,104256
136682,104294
136718,104262
136712,104280
136639,104294
136627,104288
136773,104297
136807,104330
136753,104315
136770,104300
136764,104313
136913,104321
136946,104359
136928,104375
136895,104329
136937,104361
137019,104394
137117,104397
137137,104444
137050,104385
137112,104418
137212,104450
137305,104464
137306,104526
137282,104467
137332,104484
137454,104536
137539,104544
137504,104588
137536,104567
137551,104593
137649,104618
137739,104630
137732,104638
137691,104592
137728,104664
137797,104680
137806,104648
137788,104639
137709,104619
137736,104596
137814,104649
137810,104651
137712,104646
137707,104594
137666,104602
137741,104604
137751,104611
137659,104625
137600,104544
137597,104580
137622,104590
137621,104578
137595,104535
137471,104565
137476,104583
137525,104553
137586,104577
137528,104571
137490,104514
137493,104563
137546,104567
137544,104568
137555,104562
137460,104526
137572,104575
137637,104567
137659,104587
137623,104581
137582,104551
137637,104594
137744,104635
137735,104613
137807,104611
137727,104603
137780,104621
137855,104684
137865,104661
138552,104887
138527,104910
138479,104890
138587,104946
138657,104909
138693,104945
138729,104987
138662,104951
138773,104985
138833,105005
138861,105027
138822,104998
138819,105008
138906,105039
138973,105048
139018,105053
138994,105089
138958,105065
139065,105080
139139,105125
139148,105121
139210,105130
139174,105116
139265,105174
139305,105163
139323,105157
139295,105169
139220,105157
139353,105180
139338,105190
139273,105149
139202,105106
139035,105025
138933,105010
138793,104919
138586,104838
138267,104741
137987,104638
137758,104546
137593,104515
137422,104448
137183,104375
137030,104321
136976,104335
136935,104278
136814,104246
136731,104229
136596,104187
136675,104210
136620,104192
136562,104171
136554,104135
136474,104157
136497,104141
136550,104166
136519,104146
136448,104150
136435,104116
136509,104164
136517,104156
136550,104154
136503,104154
136479,104152
136556,104198
136590,104177
136661,104178
136592,104230
136600,104180
136737,104234
136768,104264
136752,104246
136754,104226
136755,104272
136862,104271
136942,104301
136921,104314
136935,104285
136932,104310
137011,104322
137084,104359
137151,104359
137077,104326
137088,104361
137250,104387
137313,104436
137283,104440
137318,104421
137309,104449
137431,104476
137500,104491
137465,104505
137488,104477
137476,104506
137547,104533
137595,104505
137638,104549
137526,104489
137515,104513
137635,104528
137608,104512
137559,104492
137508,104522
137459,104509
137512,104510
137488,104495
137500,104448
137373,104473
137381,104437
137435,104448
137405,104412
137349,104415
137286,104398
137244,104428
137302,104374
137299,104387
137284,104376
137203,104372
137223,104411
137274,104372
137289,104392
137229,104390
137202,104372
137218,104387
137318,104402
137327,104427
137313,104376
137279,104400
137301,104390
137391,104412
137416,104390
137440,104468
137360,104385
137438,104442
137508,104446
137543,104487
137568,104494
137469,104474
137572,104471
137670,104554
137699,104528
137666,104531
137629,104539
137717,104529
137814,104569
137842,104594
137867,104569
137820,104581
137907,104610
137968,104617
138001,104627
137994,104671
137970,104632
137993,104662
138124,104664
138171,104691
138112,104676
138087,104674
138178,104713
138250,104686
138289,104734
138267,104707
138253,104735
138265,104773
138412,104749
138412,104778
138454,104785
138358,104799
138408,104768
138514,104820
138528,104804
138495,104807
138461,104814
138522,104843
138574,104841
138617,104852
138586,104852
138527,104831
138605,104867
138672,104864
138716,104863
138674,104875
138674,104866
138744,104920
138812,104896
138817,104918
138797,104908
138738,104893
138824,104903
138823,104895
138773,104882
138675,104830
138509,104749
138435,104745
138273,104665
138059,104577
137726,104475
137459,104371
137330,104388
137188,104283
137041,104266
136826,104174
136680,104131
136684,104134
136628,104075
136538,104079
136424,104028
136350,104012
136369,104071
136367,104032
136314,104057
136253,104008
136232,103994
136240,104033
136254,104011
136235,103984
136198,103960
136143,104003
136239,103972
136267,103976
136271,103998
136177,103984
136170,103958
136285,104019
136316,104032
136321,103995
136263,104009
136265,104009
136387,104020
136440,104039
136469,104069
136402,104065
136430,104042
136509,104115
136540,104094
136612,104125
136534,104101
136567,104136
136626,104119
136698,104165
136711,104133
136684,104135
136736,104155
136843,104219
136904,104222
136921,104217
136930,104235
136946,104248
137043,104239
137093,104284
137107,104274
137062,104260
137090,104298
137202,104309
137189,104295
137171,104296
137153,104293
137087,104308
137176,104320
137199,104314
137159,104300
137065,104261
137047,104264
137120,104286
137091,104252
137030,104255
136971,104219
136950,104246
136996,104228
136981,104228
136935,104194
136841,104153
136880,104159
136872,104211
136877,104195
136893,104173
136793,104177
136794,104157
136827,104157
136873,104166
136848,104137
136792,104174
136764,104166
136876,104183
136901,104178
136863,104182
136822,104133
136874,104207
136907,104195
136949,104177
136911,104203
136849,104165
136919,104162
137000,104243
136994,104217
137010,104229
136947,104220
136974,104202
137072,104266
137065,104256
137090,104242
137021,104211
137125,104271
137171,104274
137223,104285
137247,104290
137151,104277
137210,104318
137338,104329
137324,104319
137359,104317
137297,104293
137388,104350
137484,104351
137465,104361
137490,104388
137409,104383
137458,104377
137554,104397
137594,104412
137583,104372
137500,104391
137568,104453
137676,104447
137685,104448
137657,104462
137562,104433
137702,104422
137729,104453
137800,104501
137768,104452
137717,104477
137788,104488
137816,104519
137828,104494
137839,104499
137788,104468
137848,104539
137896,104487
137899,104520
137878,104477
137821,104480
137905,104542
137929,104528
137976,104518
137937,104555
137881,104533
137994,104529
138059,104583
138042,104537
138034,104581
137975,104569
138115,104571
138128,104582
138149,104559
138076,104564
137955,104543
137987,104501
137911,104465
137809,104417
137581,104358
137343,104293
137241,104260
137130,104188
136936,104136
136736,104045
136591,104028
136494,103981
136429,103951
136343,103925
136198,103908
136050,103839
136085,103870
136029,103839
135952,103815
135868,103751
135856,103798
135836,103808
135850,103779
135784,103774
135727,103718
135689,103711
135724,103735
135753,103724
135722,103710
135711,103713
135669,103729
135732,103748
135722,103722
135765,103723
135687,103733
135654,103720
135777,103748
135779,103780
135753,103753
135747,103741
135752,103749
135784,103770
135850,103785
135849,103773
135853,103763
135818,103808
135902,103829
135941,103818
135988,103821
135981,103824
135972,103858
136070,103837
136140,103850
136165,103866
136087,103871
136164,103880
136267,103925
136286,103948
136278,103905
136270,103930
136311,103913
136341,103944
136397,103941
136377,103949
136290,103942
136300,103932
136403,103964
136386,103950
136334,103932
136287,103915
136298,103903
136351,103954
136341,103914
136315,103938
136199,103874
136207,103884
136227,103878
136254,103894
136179,103880
136141,103835
136109,103836
136149,103884
136191,103851
136100,103845
136028,103824
136030,103829
136138,103843
136101,103841
136059,103818
135961,103807
136040,103820
136070,103863
136058,103825
136102,103823
136033,103787
136011,103828
136075,103823
136131,103807
136099,103851
136018,103790
136102,103842
136131,103856
136169,103871
136163,103851
136129,103867
136176,103847
136243,103881
136281,103870
136258,103866
136205,103829
136320,103914
136359,103895
136410,103929
136406,103924
136350,103922
136382,103942
136506,103939
136496,103981
136516,103942
136462,103946
136465,103997
136568,103964
136643,103999
136608,104016
136558,103986
136654,104017
136704,104045
136745,104035
136728,104061
136697,104025
136790,104080
136855,104104
136848,104077
136898,104114
136799,104089
136915,104099
136977,104117
136949,104120
136970,104120
136891,104125
136948,104140
137029,104161
137046,104158
137072,104176
136993,104196
137073,104156
137186,104212
137160,104193
137157,104195
137095,104170
137210,104186
137259,104222
137256,104217
137253,104226
137183,104219
137282,104242
137347,104261
137409,104301
137335,104256
137324,104251
137440,104310
137485,104298
137444,104321
137431,104263
137389,104269
137409,104299
137376,104255
137296,104212
137150,104152
137028,104115
136904,104118
136794,104031
136638,103978
136446,103915
136237,103890
136212,103801
136122,103803
136011,103736
135830,103738
135704,103663
135749,103691
135719,103627
135598,103624
135549,103573
135477,103598
135486,103558
135469,103555
135488,103570
135341,103536
135304,103527
135383,103551
135367,103537
135371,103514
135313,103532
135217,103513
135344,103532
135353,103536
135349,103514
135335,103503
135309,103547
135381,103513
135451,103560
135398,103555
135389,103539
135418,103579
135470,103584
135511,103582
135555,103593
135534,103577
135536,103632
135596,103632
135682,103636
135696,103650
135656,103661
135682,103641
135806,103709
135828,103705
135880,103689
135869,103737
135855,103717
136020,103773
136037,103764
136084,103774
136021,103787
136064,103770
136183,103801
136220,103819
136196,103845
136140,103826
136173,103796
136250,103855
136230,103809
136217,103834
136136,103805
136092,103780
136198,103797
136175,103789
136105,103742
136033,103738
135971,103753
136005,103708
136018,103715
135964,103700
135876,103683
135873,103707
135883,103728
135869,103681
135872,103657
135741,103656
135751,103647
135820,103646
135839,103679
135783,103612
135719,103631
135741,103649
135821,103638
135771,103644
135765,103603
135701,103615
135718,103668
135810,103629
135817,103638
135735,103637
135717,103626
135764,103673
135814,103632
135847,103645
135826,103672
135770,103671
135830,103695
135894,103660
135955,103665
135929,103703
135878,103640
135953,103670
136043,103715
136048,103737
136047,103682
135979,103699
136065,103743
136105,103763
136129,103771
136134,103718
136111,103745
136160,103796
136205,103779
136268,103778
136210,103795
136155,103752
136277,103798
136346,103803
136374,103831
136382,103820
136312,103851
136385,103827
136487,103894
136492,103882
136481,103859
136464,103888
136555,103902
136581,103902
136598,103897
136580,103924
136550,103898
136642,103919
136686,103934
136659,103931
136683,103920
136627,103943
136742,103975
136765,103960
136831,103956
136777,103996
136723,103958
136852,104026
136889,104019
136898,104006
136854,103980
136781,103972
136878,103999
136867,103972
136802,103954
136715,103923
136550,103891
136484,103851
136427,103825
136223,103746
136064,103713
135908,103652
135818,103604
135769,103609
135684,103559
135508,103492
135407,103466
135362,103433
135355,103440
135296,103409
135173,103371
135100,103376
135152,103387
135161,103363
135110,103359
134999,103316
134950,103305
135046,103349
135038,103356
134997,103303
134960,103272
134920,103333
134977,103293
135031,103351
135039,103347
134981,103303
134960,103302
135069,103339
135112,103356
135084,103347
135058,103358
135043,103392
135124,103380
135184,103365
135199,103395
135139,103376
135199,103399
135266,103433
135313,103385
135358,103464
135336,103424
135350,103434
135454,103492
135488,103490
135525,103460
135508,103474
135542,103520
135642,103522
135740,103565
135670,103547
135643,103542
135709,103590
135769,103595
135806,103589
135823,103580
135746,103589
135722,103562
135843,103622
135841,103598
135814,103594
135715,103537
135734,103567
135790,103573
135799,103554
135763,103554
135698,103512
135662,103573
135740,103548
135724,103550
135708,103517
135627,103533
135630,103487
135631,103521
135688,103515
135590,103515
135529,103487
135502,103491
135568,103483
135558,103460
135580,103473
135477,103466
135478,103497
135533,103466
135582,103476
135527,103457
135491,103440
135467,103487
135549,103459
135622,103492
135535,103444
135512,103435
135547,103518
135600,103500
135650,103469
135619,103482
135572,103509
135633,103488
135700,103520
135729,103535
135683,103501
135610,103510
135701,103544
135793,103535
135764,103556
135797,103558
135717,103569
135749,103559
135843,103595
135863,103568
135898,103582
135780,103573
135847,103549
135952,103625
135952,103606
135972,103602
135892,103578
135976,103642
136056,103626
136035,103614
136078,103664
136026,103624
136072,103662
136183,103661
136201,103690
136156,103680
136088,103652
136215,103712
136261,103734
136255,103679
136243,103674
136198,103716
136274,103702
136344,103730
136349,103709
136318,103733
136270,103737
136327,103742
136408,103742
136441,103733
136403,103771
136370,103767
136463,103762
136488,103770
136531,103774
136460,103784
136439,103742
136537,103817
136502,103791
136491,103741
136375,103737
136265,103667
136164,103670
136154,103602
135950,103605
135789,103524
135579,103426
135579,103447
135467,103397
135336,103346
135188,103281
135055,103238
135057,103281
134993,103244
134947,103230
134803,103179
134732,103125
134775,103167
134719,103139
134656,103104
134600,103063
134516,103079
134514,103052
134551,103055
134535,103043
134479,103033
134426,103025
134455,103066
134528,103072
134479,103090
134466,103070
134460,103054
134528,103099
134545,103072
134575,103058
134545,103060
134531,103091
134594,103111
134648,103081
134666,103117
134622,103115
134649,103124
134724,103133
134811,103165
134765,103164
134765,103112
134762,103173
134883,103169
134893,103187
134870,103203
134871,103163
134911,103222
134998,103213
135012,103240
135071,103246
135039,103232
135018,103274
135168,103267
135207,103304
135177,103325
135137,103285
135180,103289
135285,103309
135301,103348
135293,103312
135231,103321
135238,103327
135312,103306
135334,103302
135289,103355
135218,103281
135226,103291
135261,103291
135242,103308
135215,103241
135107,103252
135086,103252
135112,103271
135105,103225
135095,103215
135000,103230
135018,103172
135050,103200
135051,103246
135006,103164
134952,103159
134963,103166
135043,103183
135026,103208
135002,103158
134943,103172
134985,103181
135021,103208
134996,103231
135003,103201
134959,103163
134990,103181
135057,103233
135048,103214
135085,103195
135001,103192
135065,103206
135083,103227
135136,103216
135091,103211
135055,103188
135079,103223
135158,103253
135212,103249
135194,103274
135113,103233
135236,103247
135298,103304
135317,103282
135351,103273
135240,103317
135329,103278
135444,103319
135450,103338
135417,103294
135347,103309
135443,103361
135501,103360
135523,103329
135542,103360
135452,103344
135539,103356
135639,103385
135617,103422
135607,103355
135536,103392
135642,103377
135735,103414
135734,103452
135709,103415
135673,103395
135769,103436
135832,103449
135841,103426
135816,103424
135773,103471
135849,103447
135884,103461
135911,103469
135876,103467
135863,103445
135911,103504
135965,103500
136013,103516
135973,103492
135900,103495
136037,103525
136051,103530
136059,103504
135984,103451
135913,103497
135896,103450
135849,103414
135748,103402
135546,103325
135352,103288
135336,103254
135227,103215
135049,103156
134946,103094
134789,103066
134736,103023
134704,102981
134602,102955
134511,102931
134336,102952
134358,102896
134317,102879
134260,102842
134202,102824
134081,102842
134128,102821
134101,102818
134115,102808
133978,102781
133967,102799
134015,102774
134076,102779
134036,102803
133983,102778
133954,102823
134015,102806
134041,102797
134095,102807
134027,102803
134016,102815
134135,102804
134163,102843
134144,102798
134123,102808
134101,102849
134226,102872
134235,102861
134234,102875
134179,102819
134233,102867
134314,102892
134385,102909
134331,102906
134305,102907
134296,102897
134460,102944
134446,102961
134444,102944
134420,102922
134469,102935
134548,102981
134548,102982
134610,102963
134549,102982
134570,103001
134667,103029
134689,102982
134703,103024
134618,102999
134629,103015
134685,103034
134712,103005
134730,103008
134639,103024
134661,102995
134732,103023
134693,102995
134672,102989
134606,102958
134636,103008
134658,102980
134686,102998
134610,102947
134539,102942
134549,102954
134586,102965
134619,102949
134542,102931
134487,102927
134491,102937
134561,102928
134545,102936
134521,102908
134447,102896
134483,102921
134506,102919
134531,102937
134515,102919
134435,102901
134488,102942
134559,102949
134567,102930
134547,102932
134501,102926
134538,102961
134610,102975
134615,102944
134627,102942
134526,102941
134628,102983
134665,102989
134685,102979
134671,102993
134613,102961
134666,102995
134742,102973
134802,102994
134745,103008
134722,102992
134769,102996
134850,103007
134923,103056
134855,103051
134806,103032
134919,103069
135003,103052
135014,103108
135011,103088
134957,103092
135041,103138
135083,103084
135114,103098
135090,103097
135043,103110
135124,103157
135168,103121
135234,103167
135208,103138
135134,103162
135232,103145
135321,103186
135278,103143
135257,103176
135265,103158
135318,103215
135380,103189
135409,103218
135403,103192
135305,103186
135454,103248
135471,103216
135489,103233
135430,103204
135405,103240
135464,103232
135508,103238
135576,103232
135535,103246
135448,103233
135625,103274
135635,103276
135569,103246
135528,103221
135444,103204
135411,103163
135396,103164
135206,103128
135052,103074
134861,102994
134840,102975
134746,102922
134655,102933
134491,102849
134349,102808
134345,102820
134276,102750
134179,102714
134072,102706
133972,102695
133940,102678
133936,102630
133915,102638
133796,102602
133712,102608
133767,102572
133785,102580
133724,102602
133690,102595
133642,102618
133717,102594
133766,102583
133729,102627
133678,102610
133669,102594
133785,102632
133804,102640
133825,102601
133787,102639
133798,102619
133885,102646
133929,102658
133933,102674
133895,102653
133939,102642
134030,102696
134056,102712
134097,102711
134069,102702
134088,102738
134169,102749
134206,102740
134229,102767
134221,102748
134238,102789
134340,102829
134350,102797
134427,102823
134398,102813
134394,102851
134495,102856
134587,102868
134560,102892
134496,102846
134581,102882
134664,102883
134652,102922
134630,102900
134596,102901
134578,102866
134641,102905
134690,102923
134613,102888
134554,102860
134542,102896
134586,102899
134602,102870
134543,102829
134449,102838
134459,102867
134478,102850
134516,102805
134446,102815
134389,102792
134370,102797
134427,102814
134446,102849
134391,102784
134306,102769
134362,102790
134396,102792
134410,102817
134364,102779
134302,102777
134323,102781
134400,102799
134376,102795
134391,102793
134288,102810
134323,102765
134386,102795
134403,102789
134394,102787
134328,102762
134371,102810
134460,102790
134458,102845
134474,102832
134389,102780
134509,102817
134575,102868
134555,102830
134611,102871
134506,102847
134614,102863
134666,102887
134655,102857
134650,102895
134572,102876
134673,102907
134745,102932
134778,102899
134776,102940
134692,102911
134779,102967
134847,102939
134925,102948
134940,102961
134889,102987
134979,102968
135034,103032
135096,102991
135095,103041
135012,103067
135141,103047
135218,103088
135183,103082
135176,103079
135161,103043
135217,103116
135261,103112
135323,103113
135307,103121
135236,103089
135391,103120
135397,103116
135420,103173
135384,103115
135392,103147
135457,103189
135519,103164
135531,103192
135490,103185
135493,103179
135558,103236
135599,103167
135605,103209
135496,103175
135421,103131
135425,103143
135351,103093
135195,103058
135016,102964
134866,102924
134765,102922
134728,102870
134611,102812
134465,102772
134293,102758
134294,102714
134230,102670
134162,102687
134007,102627
133960,102595
133987,102626
133941,102623
133914,102549
133811,102568
133757,102567
133830,102554
133806,102601
133770,102524
133759,102526
133713,102551
133815,102550
133838,102573
133845,102565
133750,102588
133760,102543
133863,102600
133893,102600
133917,102602
133858,102588
133865,102618
133965,102628
134026,102634
134041,102672
133997,102638
133991,102672
134105,102683
134188,102677
134179,102695
134163,102693
134178,102726
134244,102748
134329,102720
134358,102770
134352,102762
134381,102775
134512,102795
134577,102823
134558,102847
134523,102783
134578,102873
134684,102880
134768,102877
134755,102871
134694,102880
134697,102880
134798,102894
134847,102927
134772,102898
134733,102902
134730,102902
134780,102922
134784,102906
134772,102881
134672,102873
134703,102888
134702,102907
134701,102842
134671,102837
134618,102812
134573,102822
134660,102842
134609,102866
134586,102793
134521,102807
134551,102816
134570,102814
134599,102814
134547,102789
134478,102802
134477,102824
134535,102801
134553,102835
134534,102786
134507,102771
134530,102830
134578,102816
134638,102810
134587,102826
134557,102798
134595,102821
134678,102843
134703,102843
134690,102866
134651,102864
134711,102867
134819,102877
134824,102928
134811,102880
134763,102915
134872,102922
134946,102955
134936,102966
134978,102972
134928,102951
135021,103014
135122,102998
135120,103031
135111,102991
135113,103013
135180,103021
135254,103040
135281,103042
135318,103089
135217,103079
135331,103090
135386,103087
135438,103147
135381,103105
135351,103109
135423,103157
135487,103136
135540,103141
135511,103153
135442,103157
135545,103150
135615,103159
135618,103192
135640,103166
135546,103200
135663,103215
135723,103242
135721,103199
135756,103227
135714,103231
135769,103244
135844,103270
135863,103238
135832,103263
135771,103246
135857,103311
135913,103285
135882,103281
135866,103229
135767,103255
135796,103251
135718,103211
135635,103178
135488,103096
135317,103078
135191,102996
135067,102975
134917,102868
134752,102827
134584,102826
134518,102775
134442,102769
134342,102685
134187,102677
134067,102642
134080,102604
134088,102613
133975,102607
133872,102554
133773,102529
133858,102555
133843,102565
133805,102497
133739,102514
133692,102517
133800,102516
133789,102548
133782,102482
133735,102490
133687,102513
133828,102518
133827,102551
133829,102536
133764,102533
133752,102528
133880,102579
133926,102558
133870,102559
133836,102557
133848,102557
133877,102581
133964,102592
133950,102595
133909,102572
133923,102572
133967,102579
134053,102620
134050,102605
133986,102583
134028,102627
134138,102644
134164,102663
134154,102648
134148,102665
134171,102682
134228,102710
134323,102721
134345,102709
134267,102689
134325,102722
134410,102721
134377,102765
134389,102754
134318,102719
134345,102735
134436,102732
134455,102730
134417,102736
134345,102709
134338,102704
134384,102762
134363,102701
134325,102720
134239,102661
134256,102706
134281,102679
134340,102687
134260,102696
134187,102655
134177,102684
134202,102658
134211,102655
134197,102622
134096,102633
134099,102605
134159,102654
134140,102656
134135,102629
134072,102616
134102,102649
134129,102634
134200,102638
134147,102621
134083,102617
134156,102642
134201,102674
134213,102678
134179,102633
134085,102624
134128,102630
134220,102639
134228,102674
134212,102675
134170,102644
134206,102658
134248,102668
134344,102718
134295,102659
134263,102685
134307,102697
134359,102690
134428,102723
134400,102707
134320,102698
134394,102731
134487,102759
134500,102734
134486,102745
134404,102735
134504,102745
134545,102795
134543,102760
134563,102772
134457,102772
134572,102777
134617,102805
134610,102783
134565,102794
134527,102778
134622,102796
134694,102820
134660,102790
134644,102797
134587,102784
134667,102821
134737,102865
134682,102799
134685,102804
134659,102811
134738,102823
134780,102844
134791,102823
134783,102857
134695,102864
134833,102859
134815,102882
134847,102836
134812,102843
134732,102872
134844,102865
134872,102885
134801,102876
134744,102795
134716,102850
134702,102793
134688,102779
134556,102764
134431,102686
134304,102664
134233,102638
134175,102588
134007,102560
133854,102505
133693,102405
133709,102426
133588,102431
133453,102328
133368,102309
133229,102287
133206,102258
133172,102224
133061,102243
132908,102171
132853,102168
132860,102165
132866,102121
132820,102143
132676,102118
132640,102047
132686,102080
132684,102081
132651,102047
132589,102067
132537,102037
132631,102064
132641,102056
132652,102066
132594,102053
132548,102097
132633,102064
132709,102087
132656,102089
132614,102062
132609,102105
132682,102111
132694,102103
132713,102099
132688,102113
132641,102072
132740,102117
132767,102106
132781,102124
132721,102129
132721,102144
132807,102150
132799,102154
132832,102117
132759,102150
132750,102145
132878,102164
132901,102181
132849,102201
132811,102185
132873,102173
132960,102191
132976,102203
132934,102178
132867,102189
132903,102168
132981,102221
132949,102234
132927,102204
132882,102148
132850,102193
132929,102166
132939,102173
132888,102164
132828,102131
132825,102160
132855,102141
132870,102154
132795,102127
132726,102095
132750,102095
132787,102111
132733,102103
132742,102078
132653,102085
132637,102075
132707,102098
132672,102083
132649,102085
132562,102064
132569,102075
132630,102052
132638,102067
132587,102037
132499,102039
132578,102042
132603,102059
132600,102066
132547,102035
132529,102046
132544,102067
132600,102053
132667,102074
132610,102075
132505,102037
132638,102087
132661,102077
132650,102096
132640,102065
132584,102064
132651,102110
132692,102093
132696,102128
132671,102079
132649,102072
132695,102121
132758,102122
132770,102129
132716,102095
132699,102083
132753,102163
132795,102148
132825,102108
132779,102113
132746,102113
132800,102136
132896,102174
132860,102127
132798,102146
132784,102140
132838,102179
132934,102184
132886,102195
132863,102147
132820,102173
132973,102193
132988,102218
132943,102154
132978,102169
132871,102204
132983,102210
133023,102212
133016,102228
132967,102201
132950,102191
133035,102241
133046,102221
133087,102231
133027,102230
132978,102187
133072,102235
133112,102247
133139,102218
133105,102214
133040,102247
133163,102226
133194,102238
133153,102246
133105,102260
133040,102251
133060,102245
133034,102184
133005,102178
132847,102134
132712,102106
132710,102093
132593,102023
132503,102000
132320,101946
132224,101892
132189,101892
132107,101875
131964,101800
131822,101741
131703,101768
131712,101725
131596,101676
131503,101686
131350,101587
131315,101591
131299,101619
131281,101574
131143,101508
131087,101516
131024,101523
131027,101513
131037,101529
131005,101483
130933,101477
130901,101483
130945,101505
130957,101467
130927,101487
130883,101456
130854,101499
130945,101541
130948,101492
130972,101502
130877,101519
130871,101514
130967,101501
131010,101509
130995,101535
130965,101541
130964,101521
131033,101544
131110,101529
131089,101571
131023,101538
131089,101579
131179,101608
131173,101616
131222,101613
131135,101599
131228,101632
131290,101665
131325,101642
131366,101662
131314,101677
131354,101678
131456,101716
131468,101733
131480,101699
131418,101718
131454,101735
131532,101756
131521,101753
131541,101715
131479,101737
131483,101720
131557,101755
131527,101727
131534,101714
131417,101717
131440,101694
131474,101704
131486,101750
131427,101707
131315,101670
131366,101675
131406,101699
131388,101696
131351,101661
131221,101633
131301,101655
131356,101696
131301,101642
131262,101626
131217,101632
131238,101661
131275,101646
131319,101658
131274,101629
131222,101653
131264,101671
131333,101647
131290,101679
131318,101629
131275,101664
131310,101679
131359,101696
131377,101711
131353,101675
131308,101659
131373,101710
131462,101716
131433,101721
131431,101691
131384,101694
131465,101735
131519,101723
131512,101729
131487,101716
131463,101743
131527,101752
131574,101758
131602,101752
131581,101733
131530,101752
131624,101790
131694,101797
131699,101783
131654,101800
131638,101788
131717,101807
131754,101816
131774,101815
131751,101814
131710,101823
131777,101827
131819,101840
131845,101846
131803,101845
131759,101843
131868,101858
131895,101866
131869,101853
131874,101865
131861,101872
131912,101861
131966,101905
131984,101890
131959,101862
131861,101903
131978,101873
132005,101915
132030,101914
132001,101879
131985,101902
132060,101912
132122,101936
132077,101917
132053,101915
132019,101897
132128,101951
132112,101967
132111,101937
132035,101936
132025,101922
132106,101914
132104,101944
132072,101891
131979,101899
131909,101879
131870,101852
131851,101831
131709,101753
131608,101721
131472,101700
131490,101687
131384,101650
131286,101612
131105,101568
131020,101535
130931,101531
130928,101495
130814,101461
130636,101432
130586,101372
130580,101383
130480,101387
130453,101334
130306,101305
130297,101311
130306,101321
130253,101271
130228,101294
130139,101255
130136,101243
130210,101285
130177,101290
130146,101286
130112,101247
130116,101309
130212,101281
130219,101320
130198,101301
130135,101279
130203,101300
130280,101329
130323,101340
130297,101325
130254,101346
130306,101330
130357,101370
130373,101359
130353,101387
130325,101350
130372,101426
130446,101431
130508,101398
130502,101427
130466,101440
130508,101435
130604,101439
130671,101501
130680,101474
130625,101455
130668,101517
130722,101525
130821,101507
130818,101535
130753,101526
130760,101565
130840,101529
130842,101569
130835,101548
130750,101511
130819,101559
130846,101554
130814,101548
130821,101567
130696,101508
130751,101515
130813,101530
130764,101521
130727,101525
130653,101484
130658,101504
130664,101467
130727,101501
130632,101458
130565,101427
130612,101487
130619,101473
130641,101466
130613,101442
130499,101442
130550,101430
130581,101435
130539,101459
130529,101435
130457,101390
130508,101435
130584,101448
130535,101428
130504,101410
130463,101407
130533,101452
130569,101469
130617,101448
130551,101450
130504,101403
130624,101469
130629,101499
130652,101457
130624,101481
130603,101473
130614,101487
130667,101464
130712,101515
130657,101481
130634,101483
130725,101511
130786,101517
130747,101508
130731,101481
130728,101498
130796,101508
130849,101542
130841,101512
130848,101529
130775,101568
130888,101564
130918,101567
130952,101597
130877,101539
130887,101563
130954,101597
131022,101597
131001,101572
130984,101587
130952,101614
131007,101637
131102,101590
131087,101610
131029,101592
131023,101582
131127,101627
131125,101614
131174,101608
131102,101621
131057,101622
131177,101658
131193,101627
131234,101665
131185,101654
131143,101620
131274,101669
131269,101712
131275,101667
131256,101644
131249,101690
131339,101685
131370,101704
131366,101701
131317,101713
131291,101669
131355,101687
131354,101699
131314,101645
131188,101629
131073,101603
131087,101629
131016,101542
130930,101514
130752,101471
130654,101430
130637,101415
130521,101411
130412,101322
130276,101284
130164,101243
130095,101239
130083,101191
129913,101182
129770,101097
129704,101113
129711,101081
129644,101075
129579,101065
129409,101026
129392,101006
129401,100999
129415,101007
129310,100995
129226,100962
129215,100979
129248,100958
129259,100965
129230,100961
129173,100959
129175,100941
129277,100966
129236,101007
129261,100984
129177,100986
129214,100966
129310,100988
129320,101037
129315,100987
129253,100994
129280,101029
129396,101031
129413,101096
129380,101046
129375,101061
129377,101088
129516,101124
129534,101128
129539,101105
129457,101096
129535,101150
129617,101144
129612,101130
129670,101150
129552,101175
129643,101160
129746,101206
129758,101194
129752,101213
129655,101195
129766,101192
129808,101222
129803,101186
129770,101183
129722,101182
129774,101235
129790,101248
129805,101196
129768,101231
129662,101202
129728,101201
129793,101221
129721,101177
129697,101165
129601,101174
129658,101159
129670,101196
129638,101187
129579,101170
129492,101107
129590,101162
129608,101183
129567,101121
129547,101138
129486,101120
129509,101173
129533,101141
129531,101096
129498,101111
129402,101126
129427,101117
129510,101097
129466,101122
129476,101106
129396,101105
129460,101171
129467,101129
129522,101137
129464,101131
129419,101098
129496,101137
129511,101132
129523,101164
129492,101131
129453,101163
129560,101171
129605,101194
129630,101156
129624,101176
129525,101178
129660,101181
129716,101237
129713,101244
129682,101223
129667,101199
129740,101246
129791,101267
129796,101229
129761,101242
129742,101266
129811,101276
129876,101246
129854,101262
129827,101277
129820,101257
129907,101285
129897,101291
129929,101288
129884,101261
129905,101308
129975,101323
129994,101326
129981,101306
129963,101300
129919,101322
130009,101325
130082,101315
130042,101322
130029,101333
129962,101322
130057,101337
130125,101341
130063,101343
130031,101318
130036,101380
130093,101366
130165,101332
130115,101378
130089,101361
130046,101377
130144,101371
130184,101366
130164,101388
130097,101354
130102,101365
130197,101406
130167,101372
130207,101382
130136,101358
130148,101385
130199,101404
130258,101399
130207,101404
130110,101358
130114,101347
130132,101361
130086,101315
129964,101289
129798,101256
129732,101195
129699,101211
129593,101148
129494,101090
129261,101031
129210,101042
129103,100968
129038,100928
128853,100897
128691,100857
128594,100794
128560,100795
128423,100736
128275,100675
128135,100656
128066,100609
128053,100620
127925,100566
127869,100555
127709,100517
127685,100487
127716,100483
127638,100512
127579,100452
127490,100430
127491,100421
127504,100449
127487,100460
127421,100460
127296,100364
127358,100415
127356,100391
127425,100419
127378,100399
127313,100392
127339,100421
127420,100458
127415,100431
127406,100447
127363,100409
127395,100422
127441,100446
127495,100449
127476,100469
127413,100438
127440,100473
127537,100494
127580,100496
127544,100506
127488,100470
127564,100510
127628,100541
127636,100531
127629,100525
127556,100498
127666,100540
127701,100552
127717,100554
127719,100546
127627,100531
127730,100592
127761,100588
127757,100551
127740,100548
127675,100567
127731,100585
127772,100596
127748,100557
127693,100517
127614,100568
127689,100534
127716,100526
127645,100522
127616,100479
127511,100509
127570,100494
127555,100480
127543,100478
127460,100480
127449,100468
127470,100458
127473,100478
127425,100449
127363,100433
127276,100393
127359,100434
127351,100451
127331,100380
127323,100373
127233,100414
127296,100415
127322,100398
127314,100414
127242,100403
127190,100350
127264,100402
127296,100410
127253,100400
127205,100363
127235,100376
127292,100419
127319,100417
127307,100368
127269,100412
127217,100370
127328,100403
127372,100427
127338,100442
127314,100441
127315,100430
127426,100457
127468,100503
127435,100487
127418,100457
127415,100484
127503,100492
127559,100521
127544,100505
127515,100479
127508,100559
127609,100559
127612,100574
127620,100538
127617,100524
127575,100587
127650,100597
127755,100595
127761,100597
127643,100596
127690,100575
127745,100608
127793,100602
127786,100611
127705,100587
127770,100644
127837,100630
127842,100625
127805,100627
127773,100598
127823,100673
127882,100671
127922,100684
127877,100667
127864,100643
127879,100672
127971,100704
127987,100708
127935,100719
127881,100646
127929,100707
128003,100668
127993,100730
127988,100704
127978,100716
127954,100698
128059,100731
128057,100706
128044,100744
127973,100709
127992,100771
128057,100727
128121,100746
128084,100748
127985,100750
128000,100728
128087,100721
128050,100748
127970,100689
127878,100674
127834,100659
127791,100668
127680,100561
127606,100566
127403,100515
127323,100492
127276,100459
127161,100385
127009,100346
126803,100301
126733,100251
126651,100246
126508,100181
126379,100105
126156,100080
126092,100014
126029,100013
125949,99994
125817,99959
125665,99914
125662,99890
125670,99888
125595,99837
125533,99829
125356,99801
125392,99789
125454,99817
125365,99793
125348,99777
125227,99786
125293,99813
125311,99798
125363,99779
125319,99799
125272,99792
125348,99814
125369,99817
125384,99800
125382,99795
125326,99838
125402,99847
125409,99851
125477,99847
125423,99871
125367,99892
125443,99894
125547,99899
125545,99864
125551,99918
125500,99885
125588,99954
125613,99915
125673,99938
125615,99949
125592,99926
125719,100012
125740,99999
125757,99972
125736,99978
125720,99984
125753,100024
125866,100026
125826,100025
125793,99996
125779,100018
125861,100036
125882,100011
125879,100024
125824,100029
125755,99990
125828,100025
125878,100019
125796,100005
125733,99974
125713,99995
125759,100010
125774,99996
125765,100015
125665,99969
125602,99967
125689,99960
125713,99987
125656,99978
125608,99928
125550,99991
125663,99958
125657,99968
125644,99971
125595,99952
125515,99951
125657,99970
125627,99943
125614,99957
125543,99974
125499,99949
125622,99972
125640,99962
125666,99982
125585,99995
125572,99938
125679,100012
125696,99997
125689,100041
125619,99988
125672,100011
125756,100057
125753,100021
125750,100050
125759,100048
125720,100082
125849,100095
125859,100089
125858,100107
125845,100094
125889,100097
125991,100151
125985,100142
126000,100153
125934,100126
126006,100168
126063,100238
126097,100167
126139,100210
126062,100212
126105,100221
126214,100257
126254,100279
126211,100271
126152,100238
126232,100298
126273,100273
126362,100317
126334,100351
126266,100285
126350,100331
126409,100366
126456,100339
126446,100331
126432,100367
126429,100386
126519,100365
126564,100438
126565,100396
126490,100384
126581,100423
126649,100455
126637,100442
126676,100446
126604,100440
126687,100479
126764,100516
126723,100503
126749,100501
126707,100497
126776,100508
126845,100541
126911,100539
126842,100530
126775,100529
126857,100552
126891,100545
126869,100564
126809,100516
126668,100469
126681,100496
126640,100452
126601,100429
126444,100380
126284,100327
126265,100321
126165,100251
126080,100239
125961,100192
125727,100126
125708,100130
125648,100080
125512,100046
125409,99984
125250,99934
125186,99936
125178,99913
125080,99929
124968,99846
124896,99844
124906,99861
124896,99849
124896,99852
124841,99844
124789,99822
124855,99895
124936,99857
124895,99903
124936,99889
124894,99880
124991,99933
125073,99983
125119,99999
125103,99995
125112,100026
125261,100042
125381,100100
125423,100139
125401,100143
125457,100147
125534,100226
125600,100215
125677,100245
125658,100253
125672,100271
125766,100302
125834,100298
125851,100341
125861,100294
125851,100343
125950,100344
126004,100416
126058,100389
125998,100386
126038,100431
126099,100436
126203,100414
126164,100465
126181,100453
126154,100480
126219,100482
126275,100462
126283,100496
126272,100473
126238,100496
126353,100506
126395,100536
126365,100518
126308,100501
126310,100505
126386,100516
126393,100562
126391,100531
126316,100470
126281,100495
126331,100502
126332,100521
126299,100508
126232,100475
126209,100518
126256,100472
126328,100512
126282,100480
126191,100449
126177,100448
126230,100467
126254,100508
126232,100473
126121,100428
126174,100457
126214,100483
126242,100454
126211,100423
126129,100441
126100,100429
126220,100462
126201,100492
126214,100480
126135,100442
126168,100453
126241,100494
126239,100476
126243,100474
126209,100453
126239,100504
126308,100537
126353,100482
126355,100544
126290,100499
126345,100526
126400,100547
126497,100575
126471,100577
126383,100566
126498,100598
126560,100599
126636,100639
126621,100638
126546,100613
126601,100642
126687,100669
126703,100668
126719,100680
126656,100665
126725,100692
126811,100729
126845,100705
126843,100728
126768,100704
126805,100719
126912,100755
126937,100756
126912,100769
126837,100742
126926,100772
126976,100788
127018,100766
126964,100777
126954,100779
127009,100789
127062,100823
127125,100823
127099,100838
127040,100762
127101,100844
127167,100842
127213,100834
127175,100845
127115,100848
127174,100879
127272,100853
127286,100932
127255,100865
127209,100835
127312,100911
127342,100940
127374,100908
127345,100902
127304,100923
127353,100919
127430,100911
127452,100954
127415,100955
127354,100944
127342,100956
127391,100899
127338,100917
127289,100884
127144,100828
127127,100848
127083,100780
126971,100778
126830,100728
126676,100667
126664,100667
126571,100588
126484,100577
126276,100526
126139,100461
126091,100460
125977,100380
125857,100369
125669,100305
125568,100286
125494,100254
125469,100162
125397,100170
125237,100121
125121,100122
125111,100082
125113,100091
125024,100047
124969,100019
124856,100032
124896,100008
124929,100045
124889,99993
124781,99985
124713,99997
124786,100028
124812,99971
124806,100006
124762,99989
124711,99993
124802,100030
124869,100012
124867,100045
124830,100030
124814,100043
124909,100044
124958,100101
124991,100084
124935,100094
124918,100068
125055,100112
125068,100153
125049,100111
125072,100124
125060,100175
125141,100185
125244,100170
125236,100218
125198,100158
125251,100215
125334,100258
125424,100252
125453,100264
125386,100311
125426,100316
125481,100319
125538,100318
125547,100307
125550,100325
125502,100330
125622,100352
125662,100382
125582,100334
125551,100292
125549,100366
125603,100347
125608,100362
125560,100352
125510,100306
125515,100326
125608,100359
125590,100310
125555,100351
125472,100285
125496,100329
125547,100348
125546,100308
125531,100325
125467,100298
125437,100311
125522,100331
125525,100308
125504,100304
125430,100286
125415,100313
125513,100330
125487,100347
125471,100304
125444,100288
125459,100302
125530,100346
125539,100352
125566,100323
125481,100339
125516,100329
125634,100351
125630,100391
125628,100382
125605,100374
125652,100402
125738,100402
125726,100410
125751,100418
125681,100405
125738,100415
125872,100493
125837,100447
125853,100455
125815,100464
125889,100528
125951,100492
125999,100526
125978,100548
125940,100526
126010,100557
126123,100565
126117,100557
126144,100573
126057,100598
126170,100586
126239,100615
126238,100644
126252,100614
126162,100627
126271,100633
126342,100657
126360,100651
126338,100653
126270,100656
126352,100672
126468,100710
126476,100720
126436,100686
126413,100714
126469,100727
126558,100734
126567,100792
126555,100715
126543,100729
126594,100770
126643,100804
126687,100771
126659,100800
126627,100778
126726,100832
126752,100820
126818,100822
126735,100803
126729,100841
126790,100839
126858,100888
126883,100864
126841,100877
126782,100833
126914,100876
126945,100886
126937,100890
126884,100860
126861,100860
126889,100878
126868,100848
126814,100830
126726,100789
126567,100745
126582,100737
126521,100699
126383,100666
126240,100623
126055,100553
126042,100554
125907,100461
125832,100420
125576,100390
125432,100346
125368,100308
125307,100241
125193,100174
124973,100158
124843,100080
124838,100096
124739,100040
124663,100026
124530,99970
124460,99986
124441,99978
124387,99953
124339,99913
124222,99885
124181,99871
124244,99899
124187,99848
124184,99880
124088,99832
124088,99844
124116,99871
124145,99825
124154,99841
124099,99820
124087,99867
124175,99882
124235,99888
124202,99889
124167,99841
124174,99893
124295,99907
124304,99931
124300,99919
124282,99887
124300,99954
124408,99984
124444,99959
124468,99996
124407,99985
124487,99989
124576,100027
124614,100035
124624,100038
124548,100031
124623,100043
124751,100099
124753,100090
124786,100091
124703,100095
124733,100093
124832,100111
124888,100130
124850,100124
124805,100151
124831,100119
124903,100153
124906,100134
124873,100128
124829,100143
124826,100147
124899,100141
124881,100118
124843,100102
124786,100121
124765,100100
124815,100124
124830,100075
124816,100090
124675,100094
124706,100062
124757,100107
124789,100097
124737,100085
124602,100054
124683,100067
124685,100106
124750,100079
124701,100076
124603,100032
124674,100046
124778,100080
124736,100101
124711,100082
124637,100050
124692,100085
124758,100076
124809,100123
124743,100107
124673,100086
124760,100128
124841,100142
124810,100139
124844,100109
124787,100153
124861,100138
124951,100170
124954,100191
124944,100177
124947,100168
125006,100200
125078,100232
125101,100239
125097,100231
125031,100250
125179,100256
125216,100309
125234,100288
125206,100305
125209,100253
125278,100312
125379,100328
125370,100343
125357,100322
125329,100364
125433,100386
125451,100416
125491,100373
125497,100372
125460,100381
125571,100443
125601,100420
125635,100441
125622,100484
125556,100428
125691,100493
125734,100506
125767,100488
125752,100462
125766,100549
125792,100538
125913,100555
125898,100532
125920,100574
125928,100570
126001,100621
126019,100588
126055,100623
126007,100593
126015,100643
126108,100658
126152,100636
126174,100684
126105,100643
126162,100682
126216,100685
126267,100687
126262,100704
126217,100682
126240,100672
126347,100727
126360,100744
126401,100747
126336,100747
126311,100731
126413,100754
126382,100751
126376,100724
126281,100677
126196,100681
126180,100690
126144,100633
126041,100605
125931,100574
125844,100520
125774,100513
125737,100488
125577,100417
125408,100358
125254,100332
125231,100296
125141,100283
124990,100213
124814,100118
124708,100116
124672,100090
124604,100053
124474,100018
124324,99976
124278,99961
124265,99938
124222,99942
124168,99905
124022,99832
124019,99844
124024,99843
124036,99839
123969,99821
123845,99807
123851,99775
123925,99815
123912,99815
123895,99819
123856,99763
123913,99829
123923,99878
123966,99831
123921,99839
123929,99809
123927,99857
124056,99895
124051,99900
124062,99866
123999,99879
124097,99915
124140,99951
124198,99925
124209,99927
124150,99951
124217,99989
124325,100003
124320,99981
124364,99999
124325,100009
124387,100038
124495,100057
124506,100082
124522,100072
124492,100072
124568,100094
124637,100119
124683,100120
124695,100147
124577,100099
124651,100132
124760,100161
124761,100173
124695,100135
124689,100134
124705,100162
124814,100177
124735,100153
124727,100157
124643,100127
124667,100137
124738,100153
124716,100135
124644,100135
124620,100120
124609,100119
124682,100143
124720,100117
124625,100104
124588,100104
124658,100153
124677,100143
124679,100142
124664,100111
124574,100113
124656,100152
124697,100144
124698,100149
124636,100129
124599,100132
124682,100122
124734,100163
124743,100129
124692,100149
124640,100148
124712,100154
124788,100198
124778,100192
124769,100181
124771,100182
124826,100218
124929,100247
124942,100236
124912,100212
124886,100260
124971,100277
125024,100274
125071,100301
125034,100266
124956,100297
125073,100310
125155,100326
125155,100336
125120,100321
125109,100332
125166,100364
125245,100359
125267,100377
125254,100364
125224,100410
125317,100439
125378,100403
125383,100418
125354,100414
125337,100456
125413,100448
125507,100463
125495,100460
125475,100432
125441,100488
125547,100513
125565,100462
125521,100485
125532,100489
125488,100502
125594,100527
125676,100530
125639,100550
125605,100534
125560,100516
125705,100553
125716,100583
125766,100584
125705,100563
125730,100558
125836,100603
125888,100628
125882,100623
125808,100584
125852,100616
125945,100663
125946,100644
125960,100623
125884,100668
125889,100637
125970,100631
125976,100680
125894,100631
125783,100601
125776,100576
125747,100561
125741,100577
125581,100517
125447,100442
125333,100412
125350,100391
125211,100383
125067,100311
124887,100260
124812,100218
124769,100195
124672,100183
124523,100107
124341,100042
124282,100006
124253,100007
124143,99976
124034,99934
123894,99862
123892,99880
123864,99887
123819,99823
123764,99826
123629,99820
123619,99789
123681,99820
123666,99782
123615,99765
123541,99763
123550,99760
123634,99791
123637,99779
123573,99772
123505,99762
123590,99791
123604,99782
123695,99802
123668,99802
123561,99761
123689,99821
123717,99823
123787,99849
123784,99838
123710,99851
123864,99889
123948,99905
123976,99920
124002,99926
123966,99931
124056,99954
124160,99999
124217,100011
124226,100017
124172,100006
124269,100077
124343,100067
124370,100056
124368,100083
124369,100068
124432,100109
124513,100154
124565,100136
124503,100138
124483,100158
124592,100176
124622,100173
124661,100195
124634,100174
124565,100149
124677,100206
124709,100213
124714,100198
124632,100179
124616,100199
124693,100209
124699,100199
124714,100185
124630,100180
124592,100193
124671,100201
124687,100194
124672,100165
124645,100179
124579,100169
124672,100201
124716,100200
124669,100182
124643,100167
124600,100196
124661,100200
124658,100191
124630,100176
124569,100163
124545,100176
124643,100190
124654,100191
124712,100209
124640,100184
124588,100185
124696,100197
124673,100207
124716,100236
124627,100193
124601,100197
124744,100233
124730,100228
124748,100222
124687,100205
124682,100211
124738,100235
124816,100241
124790,100247
124745,100220
124722,100249
124851,100255
124917,100308
124922,100298
124883,100298
124904,100314
125026,100342
125042,100365
125072,100362
125035,100363
125037,100376
125130,100414
125198,100438
125167,100412
125176,100409
125128,100436
125199,100413
125275,100473
125252,100444
125180,100432
125253,100451
125319,100495
125330,100510
125311,100465
125232,100454
125276,100483
125310,100497
125356,100463
125323,100457
125220,100453
125270,100434
125365,100491
125315,100447
125278,100470
125215,100446
125245,100442
125305,100453
125309,100449
125294,100440
125195,100412
125203,100444
125247,100412
125192,100423
125073,100382
124927,100326
124895,100286
124846,100293
124746,100199
124588,100163
124394,100091
124305,100070
124205,100024
124046,99910
123891,99894
123608,99817
123444,99754
123321,99650
123205,99635
122954,99575
122731,99472
122610,99436
122501,99347
122362,99307
122166,99246
121957,99147
121912,99110
121819,99050
121680,99048
121536,98989
121382,98952
121303,98912
121279,98855
121266,98874
121150,98796
121024,98762
121024,98820
121016,98757
121025,98793
120938,98748
120856,98755
120910,98749
120978,98757
120973,98797
120943,98733
120853,98732
120990,98773
120980,98805
120991,98783
121003,98792
120964,98817
121072,98822
121176,98858
121165,98843
121201,98882
121174,98882
121276,98905
121383,98930
121389,98969
121445,98964
121423,98966
121570,99008
121629,99075
121685,99050
121656,99072
121649,99099
121775,99115
121819,99161
121850,99101
121837,99147
121785,99129
121900,99179
121953,99159
121936,99213
121903,99176
121884,99168
121973,99206
122001,99210
122000,99215
121966,99211
121921,99177
122024,99219
122047,99226
122029,99230
121926,99210
121927,99199
121957,99198
121958,99215
121915,99194
121879,99171
121849,99173
121896,99191
121909,99204
121881,99160
121827,99155
121780,99193
121898,99189
121940,99191
121933,99176
121892,99202
121850,99218
122006,99244
122019,99281
122047,99280
122025,99259
122052,99291
122160,99347
122201,99333
122240,99375
122215,99353
122245,99366
122382,99414
122411,99467
122434,99471
122381,99424
122480,99469
122581,99531
122641,99516
122665,99534
122672,99565
122729,99626
122863,99638
122958,99655
123002,99664
122937,99676
123057,99733
123214,99753
123267,99813
123248,99811
123297,99796
123349,99885
123490,99899
123524,99926
123610,99945
123630,99969
123707,99997
123890,100062
123985,100082
124023,100167
123990,100101
124098,100200
124260,100216
124313,100226
124383,100268
124368,100294
124473,100303
124559,100383
124599,100366
124600,100385
124591,100388
124643,100443
124761,100456
124852,100464
124913,100493
124818,100511
124936,100524
125057,100582
125141,100578
125165,100617
125098,100632
125237,100647
125325,100688
125345,100696
125288,100693
125258,100630
125287,100670
125286,100669
125261,100629
125161,100634
124953,100543
124972,100572
124942,100528
124850,100504
124720,100425
124512,100398
124470,100388
124409,100331
124341,100295
124202,100263
124019,100220
123994,100201
123948,100188
123881,100135
123838,100141
123653,100135
123682,100112
123713,100087
123663,100078
123599,100084
123542,100029
123527,100050
123597,100079
123592,100080
123553,100057
123465,100055
123599,100094
123653,100126
123670,100105
123645,100127
123661,100151
123768,100156
123859,100195
123928,100235
123944,100244
123895,100240
124062,100297
124148,100309
124165,100300
124196,100343
124203,100382
124345,100421
124405,100437
124457,100468
124433,100414
124452,100468
124602,100516
124668,100544
124676,100525
124646,100513
124734,100573
124841,100600
124922,100627
124953,100646
124936,100648
124974,100634
125050,100712
125116,100704
125180,100734
125102,100713
125161,100726
125283,100757
125317,100761
125351,100812
125288,100760
125324,100818
125405,100844
125465,100864
125450,100840
125395,100800
125417,100846
125481,100861
125529,100855
125524,100843
125476,100863
125440,100840
125525,100887
125541,100902
125509,100863
125449,100873
125480,100861
125497,100872
125553,100911
125550,100881
125460,100860
125483,100912
125594,100917
125578,100909
125573,100903
125550,100908
125539,100909
125656,100946
125726,100955
125684,100949
125644,100953
125699,100983
125821,101011
125850,101029
125838,101023
125814,101023
125849,101055
125986,101081
125993,101076
125989,101077
125935,101076
126030,101127
126117,101131
126178,101156
126206,101184
126118,101179
126192,101191
126289,101244
126381,101238
126395,101251
126320,101247
126436,101268
126512,101291
126561,101333
126558,101288
126547,101342
126605,101317
126703,101377
126692,101380
126741,101388
126693,101339
126757,101412
126882,101433
126883,101455
126907,101438
126865,101444
126948,101500
127065,101511
127073,101518
127091,101554
127023,101501
127133,101568
127187,101574
127253,101568
127276,101612
127194,101595
127287,101659
127395,101634
127453,101675
127421,101688
127385,101632
127480,101693
127583,101703
127577,101723
127572,101712
127564,101732
127657,101768
127697,101774
127768,101772
127699,101752
127690,101777
127728,101807
127779,101777
127793,101759
127716,101755
127633,101710
127628,101724
127581,101685
127533,101655
127402,101633
127216,101574
127244,101592
127138,101523
127073,101494
126919,101454
126746,101361
126723,101370
126695,101326
126556,101290
126381,101215
126294,101205
126268,101203
126255,101184
126157,101138
125999,101099
125910,101089
125904,101078
125907,101053
125859,101053
125784,101012
125685,101010
125780,101041
125803,101003
125788,101032
125719,101041
125705,101042
125776,101042
125817,101049
125844,101051
125858,101073
125785,101054
125923,101105
126004,101107
126024,101141
125965,101165
126022,101140
126119,101191
126197,101226
126174,101232
126184,101192
126193,101266
126316,101265
126368,101286
126384,101306
126357,101331
126420,101315
126531,101366
126605,101398
126614,101393
126602,101387
126659,101447
126731,101432
126816,101480
126828,101458
126842,101467
126830,101492
126989,101530
126995,101549
127005,101523
126992,101533
126998,101541
127111,101576
127122,101587
127129,101565
127104,101557
127101,101580
127213,101579
127253,101593
127210,101615
127168,101563
127167,101646
127252,101635
127273,101648
127248,101614
127205,101597
127205,101599
127300,101631
127313,101630
127318,101637
127236,101592
127212,101655
127338,101648
127386,101676
127336,101663
127330,101635
127346,101648
127449,101719
127485,101688
127458,101704
127356,101665
127453,101721
127556,101759
127573,101748
127544,101746
127536,101730
127562,101775
127667,101798
127694,101783
127729,101795
127625,101815
127709,101806
127781,101865
127820,101842
127807,101833
127806,101854
127844,101857
127917,101883
127991,101875
127989,101902
127943,101897
128023,101915
128104,101940
128122,101945
128123,101922
128074,101931
128161,101987
128211,102003
128254,101975
128258,102002
128155,101977
128282,102012
128371,102058
128320,102011
128390,102032
128322,102028
128425,102073
128486,102100
128492,102114
128513,102110
128476,102113
128552,102165
128607,102124
128677,102146
128627,102140
128617,102134
128734,102191
128740,102231
128801,102194
128760,102181
128766,102221
128860,102221
128888,102238
128933,102231
128884,102222
128827,102231
128924,102260
129030,102257
128977,102277
128995,102238
128934,102267
129001,102280
128974,102261
128976,102266
128874,102203
128741,102195
128762,102183
128760,102128
128639,102133
128496,102056
128370,102025
128367,102015
128346,102009
128226,101969
128028,101917
127946,101866
127945,101826
127881,101835
127748,101778
127627,101745
127486,101700
127536,101703
127494,101675
127421,101670
127247,101608
127200,101608
127238,101625
127221,101607
127173,101571
127141,101557
127076,101583
127174,101573
127227,101573
127182,101593
127090,101550
127142,101567
127209,101624
127247,101619
127216,101634
127198,101575
127198,101637
127320,101646
127384,101676
127357,101650
127358,101658
127340,101688
127476,101709
127497,101751
127534,101725
127504,101705
127533,101759
127614,101788
127687,101759
127700,101788
127641,101791
127703,101844
127784,101852
127889,101859
127863,101864
127844,101865
127879,101860
127965,101947
128033,101872
128044,101926
127975,101907
128006,101941
128118,101959
128160,101947
128101,101950
128007,101947
128035,101953
128157,101937
128160,101978
128119,101966
128037,101913
128119,101939
128162,101958
128121,101926
128115,101940
128015,101901
128084,101918
128167,101989
128133,101922
128117,101941
128028,101902
128112,101924
128136,101978
128153,101908
128163,101942
128033,101930
128115,101944
128168,101975
128182,101955
128177,101976
128093,101918
128187,101975
128223,101966
128225,101995
128222,101972
128164,101945
128246,101994
128346,102042
128345,102012
128327,102000
128233,101987
128337,102011
128422,102044
128397,102055
128422,102064
128347,102043
128439,102065
128513,102081
128517,102098
128497,102071
128493,102044
128552,102138
128629,102110
128640,102125
128628,102112
128582,102104
128658,102160
128760,102147
128770,102190
128757,102168
128711,102147
128822,102203
128862,102218
128887,102202
128826,102170
128810,102204
128891,102222
128943,102207
128952,102231
128934,102211
128895,102227
128988,102250
129075,102273
129090,102260
129065,102239
129017,102265
129152,102307
129192,102317
129173,102297
129171,102321
129168,102301
129218,102336
129286,102346
129314,102351
129251,102327
129243,102357
129315,102374
129374,102390
129400,102395
129320,102364
129339,102391
129414,102412
129454,102391
129469,102390
129410,102370
129363,102418
129487,102401
129560,102446
129518,102396
129472,102382
129394,102388
129466,102371
129453,102388
129385,102338
129231,102300
129153,102254
129145,102226
129071,102250
128971,102188
128788,102141
128684,102115
128653,102059
128623,102064
128483,101994
128272,101947
128200,101900
128199,101912
128079,101852
127973,101831
127848,101804
127746,101742
127760,101743
127731,101738
127643,101698
127493,101639
127469,101687
127458,101658
127478,101644
127451,101632
127286,101597
127328,101627
127351,101586
127374,101623
127349,101585
127249,101576
127282,101586
127395,101616
127365,101611
127330,101602
127312,101609
127329,101606
127447,101641
127473,101678
127449,101656
127397,101641
127427,101678
127545,101674
127537,101708
127555,101699
127500,101670
127576,101721
127614,101725
127634,101707
127650,101725
127617,101700
127673,101747
127717,101746
127812,101796
127762,101802
127711,101753
127804,101781
127887,101794
127875,101825
127896,101823
127813,101767
127907,101827
127942,101852
127932,101804
127921,101791
127857,101832
127904,101814
127992,101849
127950,101813
127952,101809
127838,101783
127911,101835
127906,101804
127935,101850
127891,101787
127795,101766
127839,101812
127897,101825
127884,101769
127852,101788
127773,101760
127820,101806
127829,101818
127866,101786
127787,101766
127733,101730
127834,101785
127836,101808
127844,101742
127809,101761
127732,101769
127807,101775
127889,101801
127868,101773
127826,101765
127787,101758
127898,101810
127907,101829
127910,101817
127869,101795
127862,101806
127938,101848
128009,101807
128018,101862
127987,101839
127922,101809
128048,101835
128096,101877
128077,101903
128062,101873
128077,101888
128148,101895
128228,101919
128203,101911
128198,101916
128174,101910
128273,101939
128348,101992
128354,101947
128289,101936
128299,101986
128363,101974
128440,101967
128423,101978
128410,101991
128354,101983
128489,102016
128491,102016
128516,102028
128462,101991
128475,102019
128570,102036
128601,102061
128638,102056
128555,102034
128566,102074
128639,102071
128700,102057
128696,102065
128651,102085
128625,102055
128751,102083
128767,102111
128769,102112
128710,102088
128755,102112
128814,102157
128858,102128
128867,102147
128754,102101
128817,102123
128867,102182
128897,102160
128911,102131
128895,102141
128882,102166
128970,102180
128986,102193
128977,102179
128938,102144
128980,102207
129038,102201
129088,102220
129048,102216
129003,102164
129040,102226
129077,102211
129100,102183
129043,102177
128939,102153
128853,102138
128884,102121
128847,102103
128689,102053
128581,101978
128513,101991
128466,101965
128352,101872
128267,101864
128022,101787
127970,101792
127888,101737
127799,101710
127655,101643
127485,101564
127451,101557
127384,101527
127302,101511
127167,101478
127016,101391
126986,101414
126986,101389
126916,101340
126855,101331
126722,101325
126706,101296
126783,101319
126734,101285
126699,101289
126645,101282
126654,101297
126690,101315
126723,101284
126665,101285
126579,101262
126676,101283
126749,101323
126736,101297
126716,101304
126627,101278
126720,101311
126775,101343
126761,101336
126774,101308
126687,101336
126792,101368
126804,101373
126852,101360
126830,101345
126822,101390
126897,101379
126963,101420
126959,101443
126973,101424
126902,101423
127045,101456
127106,101487
127149,101496
127082,101474
127037,101465
127159,101478
127223,101513
127216,101490
127195,101506
127123,101495
127254,101577
127273,101516
127316,101538
127249,101506
127204,101514
127293,101541
127312,101566
127278,101520
127281,101509
127191,101488
127245,101512
127310,101494
127265,101536
127211,101483
127154,101510
127198,101479
127233,101527
127230,101484
127148,101487
127075,101430
127184,101494
127177,101487
127162,101461
127113,101455
127042,101472
127115,101477
127173,101462
127168,101474
127068,101452
127055,101493
127130,101478
127213,101490
127188,101508
127161,101464
127117,101491
127257,101487
127268,101551
127260,101479
127231,101504
127204,101489
127318,101529
127352,101570
127363,101537
127320,101553
127318,101527
127422,101590
127479,101550
127464,101573
127484,101576
127419,101600
127528,101587
127563,101579
127576,101611
127538,101576
127530,101633
127624,101623
127673,101662
127662,101664
127599,101628
127654,101678
127735,101700
127789,101669
127782,101701
127704,101690
127741,101691
127853,101720
127873,101743
127852,101710
127816,101694
127832,101741
127941,101728
127962,101738
127932,101722
127888,101697
127922,101761
128043,101769
128041,101760
128058,101765
127939,101759
128020,101749
128129,101798
128129,101804
128115,101783
128026,101774
128104,101761
128212,101818
128215,101824
128211,101805
128136,101814
128219,101837
128303,101842
128314,101895
128284,101866
128204,101820
128305,101912
128367,101927
128436,101925
128385,101927
128316,101875
128416,101919
128462,101944
128468,101912
128453,101906
128431,101945
128494,101932
128552,101957
128610,101965
128540,101981
128404,101893
128495,101970
128465,101922
128410,101942
128346,101861
128208,101842
128203,101818
128145,101839
128091,101752
127951,101722
127807,101679
127746,101669
127688,101641
127595,101586
127442,101515
127281,101490
127229,101469
127143,101422
127092,101407
126910,101325
126760,101302
126789,101307
126725,101282
126669,101253
126598,101212
126471,101185
126540,101191
126535,101187
126484,101178
126399,101141
126334,101157
126422,101177
126463,101160
126439,101179
126377,101136
126342,101173
126396,101168
126492,101211
126486,101198
126395,101165
126447,101183
126513,101194
126575,101243
126570,101209
126542,101214
126539,101207
126619,101281
126643,101259
126702,101304
126635,101267
126660,101273
126721,101297
126771,101299
126792,101334
126794,101287
126752,101332
126874,101340
126949,101379
126932,101379
126896,101349
126934,101378
127065,101421
127072,101381
127036,101427
127011,101394
127053,101439
127111,101452
127155,101422
127132,101446
127090,101399
127084,101447
127123,101460
127158,101418
127147,101441
127064,101421
127033,101405
127136,101426
127150,101424
127125,101402
127029,101387
127037,101384
127083,101417
127095,101383
127074,101384
126995,101369
126965,101374
127021,101413
127039,101397
126987,101376
126915,101318
126954,101382
127038,101369
127051,101350
127006,101349
126960,101371
126952,101349
127058,101395
127075,101403
127070,101373
126966,101400
127047,101383
127105,101416
127150,101456
127138,101421
127084,101391
127146,101466
127245,101451
127267,101469
127253,101480
127216,101428
127257,101515
127323,101486
127390,101487
127424,101509
127313,101517
127395,101506
127484,101541
127521,101538
127554,101547
127424,101540
127526,101546
127609,101575
127651,101600
127596,101583
127529,101540
127640,101604
127697,101649
127714,101590
127714,101598
127657,101618
127747,101619
127769,101628
127838,101663
127804,101647
127732,101615
127804,101672
127840,101685
127911,101655
127889,101679
127784,101663
127891,101709
127952,101691
127969,101691
127979,101720
127881,101686
127986,101721
128050,101758
128082,101724
128036,101718
128025,101733
128061,101739
128145,101764
128155,101743
128108,101731
128027,101725
128123,101769
128171,101770
128198,101780
128151,101767
128104,101747
128187,101753
128268,101785
128196,101780
128199,101771
128149,101769
128231,101791
128278,101758
128267,101792
128194,101763
128112,101720
128145,101749
128079,101732
128031,101665
127941,101637
127760,101636
127769,101594
127730,101580
127610,101543
127457,101489
